# == pyFAI calibration ==
# Distance Sample to Detector: 0.24877604283795038 m
# PONI: 2.053e-01, 2.010e-01 m
# Rotations: -0.000237 -0.000376 -0.000000 rad
# 
# == Fit2d calibration ==
# Distance Sample-beamCenter: 248.776 mm
# Center: x=1005.196, y=1026.245 pix
# Tilt: 0.025 deg  TiltPlanRot: -57.748 deg
# 
# Detector Perkin detector	 PixelSize= 2.000e-04, 2.000e-04 m
#    Detector has a mask: False 
#    Detector has a dark current: False 
#    detector has a flat field: False 
# 
# Wavelength: 1.671e-11 m
# Mask applied: provided
# Dark current applied: False
# Flat field applied: False
# Polarization factor: 0.99
# Normalization factor: 1.0
# --> /Users/sst/project/software/pdfstream/pdfstream/test_data/Ni.chi
#        q_A^-1             I 
  9.560906e-02    8.886408e+00
  1.168712e-01    1.338333e+01
  1.381334e-01    2.370198e+01
  1.593956e-01    2.400021e+01
  1.806578e-01    3.900002e+01
  2.019199e-01    4.000325e+01
  2.231821e-01    5.559884e+01
  2.444443e-01    8.754334e+01
  2.657065e-01    3.167673e+02
  2.869686e-01    4.758151e+02
  3.082308e-01    8.214402e+02
  3.294930e-01    8.431983e+02
  3.507552e-01    8.106589e+02
  3.720173e-01    7.285436e+02
  3.932795e-01    6.335807e+02
  4.145417e-01    4.306466e+02
  4.358039e-01    2.339531e+02
  4.570660e-01    1.139997e+02
  4.783282e-01    3.739294e+01
  4.995904e-01    5.244827e+00
  5.208526e-01    5.034530e+00
  5.421147e-01    6.538908e+00
  5.633769e-01    7.592025e+00
  5.846391e-01    8.419332e+00
  6.059013e-01    8.482223e+00
  6.271634e-01    8.389574e+00
  6.484256e-01    8.255714e+00
  6.696878e-01    8.453506e+00
  6.909500e-01    8.557617e+00
  7.122121e-01    8.910748e+00
  7.334743e-01    1.041772e+01
  7.547365e-01    1.042170e+01
  7.759987e-01    1.084611e+01
  7.972608e-01    1.139473e+01
  8.185230e-01    1.158842e+01
  8.397852e-01    1.145175e+01
  8.610474e-01    1.208382e+01
  8.823095e-01    1.168525e+01
  9.035717e-01    1.315391e+01
  9.248339e-01    1.393536e+01
  9.460961e-01    1.542645e+01
  9.673583e-01    1.555857e+01
  9.886204e-01    1.542371e+01
  1.009883e+00    1.646389e+01
  1.031145e+00    1.513094e+01
  1.052407e+00    1.409595e+01
  1.073669e+00    1.376348e+01
  1.094931e+00    1.677194e+01
  1.116193e+00    1.688593e+01
  1.137456e+00    1.716331e+01
  1.158718e+00    1.881056e+01
  1.179980e+00    1.703226e+01
  1.201242e+00    1.656427e+01
  1.222504e+00    1.655858e+01
  1.243767e+00    1.794146e+01
  1.265029e+00    1.686918e+01
  1.286291e+00    1.632951e+01
  1.307553e+00    1.789754e+01
  1.328815e+00    1.909198e+01
  1.350077e+00    1.847413e+01
  1.371340e+00    1.826822e+01
  1.392602e+00    1.621419e+01
  1.413864e+00    1.752509e+01
  1.435126e+00    1.993415e+01
  1.456388e+00    1.990460e+01
  1.477650e+00    1.822712e+01
  1.498913e+00    2.091658e+01
  1.520175e+00    2.399661e+01
  1.541437e+00    1.941655e+01
  1.562699e+00    1.865065e+01
  1.583961e+00    1.597209e+01
  1.605224e+00    1.834382e+01
  1.626486e+00    1.871371e+01
  1.647748e+00    1.956955e+01
  1.669010e+00    2.047580e+01
  1.690272e+00    1.671699e+01
  1.711534e+00    1.896572e+01
  1.732797e+00    1.960451e+01
  1.754059e+00    1.496743e+01
  1.775321e+00    1.553746e+01
  1.796583e+00    1.629156e+01
  1.817845e+00    1.581525e+01
  1.839107e+00    1.593338e+01
  1.860370e+00    1.633907e+01
  1.881632e+00    1.813114e+01
  1.902894e+00    1.789980e+01
  1.924156e+00    1.872455e+01
  1.945418e+00    2.044207e+01
  1.966680e+00    1.823385e+01
  1.987943e+00    1.942836e+01
  2.009205e+00    2.363484e+01
  2.030467e+00    2.253335e+01
  2.051729e+00    2.025409e+01
  2.072991e+00    2.117823e+01
  2.094254e+00    2.348039e+01
  2.115516e+00    2.504126e+01
  2.136778e+00    2.318990e+01
  2.158040e+00    3.168302e+01
  2.179302e+00    2.667965e+01
  2.200564e+00    2.406153e+01
  2.221827e+00    3.792194e+01
  2.243089e+00    3.071187e+01
  2.264351e+00    2.239587e+01
  2.285613e+00    2.257302e+01
  2.306875e+00    2.661823e+01
  2.328137e+00    2.675812e+01
  2.349400e+00    2.472678e+01
  2.370662e+00    2.893061e+01
  2.391924e+00    2.807598e+01
  2.413186e+00    2.725620e+01
  2.434448e+00    3.139560e+01
  2.455711e+00    3.175691e+01
  2.476973e+00    3.098131e+01
  2.498235e+00    2.884801e+01
  2.519497e+00    3.375872e+01
  2.540759e+00    3.499298e+01
  2.562021e+00    3.150414e+01
  2.583284e+00    3.629200e+01
  2.604546e+00    3.672633e+01
  2.625808e+00    3.530753e+01
  2.647070e+00    4.071654e+01
  2.668332e+00    4.247124e+01
  2.689594e+00    4.193842e+01
  2.710857e+00    4.136658e+01
  2.732119e+00    4.849210e+01
  2.753381e+00    4.578093e+01
  2.774643e+00    4.582382e+01
  2.795905e+00    5.186009e+01
  2.817168e+00    5.392947e+01
  2.838430e+00    5.511499e+01
  2.859692e+00    5.266973e+01
  2.880954e+00    6.233649e+01
  2.902216e+00    6.407710e+01
  2.923478e+00    6.737421e+01
  2.944741e+00    8.684270e+01
  2.966003e+00    1.754614e+02
  2.987265e+00    4.842632e+02
  3.008527e+00    1.271024e+03
  3.029789e+00    2.980138e+03
  3.051051e+00    7.328241e+03
  3.072314e+00    1.622107e+04
  3.093576e+00    1.923432e+04
  3.114838e+00    1.196783e+04
  3.136100e+00    4.351250e+03
  3.157362e+00    1.537837e+03
  3.178624e+00    6.606696e+02
  3.199887e+00    2.238010e+02
  3.221149e+00    1.030712e+02
  3.242411e+00    1.311515e+02
  3.263673e+00    1.099652e+02
  3.284935e+00    7.841122e+01
  3.306198e+00    7.840192e+01
  3.327460e+00    9.162601e+01
  3.348722e+00    8.213292e+01
  3.369984e+00    7.550291e+01
  3.391246e+00    9.891395e+01
  3.412508e+00    8.412611e+01
  3.433771e+00    7.447305e+01
  3.455033e+00    2.055878e+02
  3.476295e+00    4.286161e+02
  3.497557e+00    1.052711e+03
  3.518819e+00    2.564163e+03
  3.540081e+00    6.902105e+03
  3.561344e+00    1.004610e+04
  3.582606e+00    7.439770e+03
  3.603868e+00    3.379759e+03
  3.625130e+00    1.379495e+03
  3.646392e+00    4.541596e+02
  3.667655e+00    2.042086e+02
  3.688917e+00    1.070414e+02
  3.710179e+00    6.159010e+01
  3.731441e+00    5.278600e+01
  3.752703e+00    6.485920e+01
  3.773965e+00    6.327382e+01
  3.795228e+00    4.840770e+01
  3.816490e+00    5.150925e+01
  3.837752e+00    4.919790e+01
  3.859014e+00    4.134459e+01
  3.880276e+00    3.627944e+01
  3.901538e+00    5.516166e+01
  3.922801e+00    4.894030e+01
  3.944063e+00    4.867448e+01
  3.965325e+00    8.495463e+01
  3.986587e+00    6.780266e+01
  4.007849e+00    2.585032e+01
  4.029112e+00    3.012369e+01
  4.050374e+00    4.209629e+01
  4.071636e+00    3.641114e+01
  4.092898e+00    3.604092e+01
  4.114160e+00    6.088965e+01
  4.135422e+00    4.859499e+01
  4.156685e+00    2.836392e+01
  4.177947e+00    2.787704e+01
  4.199209e+00    3.098947e+01
  4.220471e+00    2.758315e+01
  4.241733e+00    3.536682e+01
  4.262995e+00    5.780344e+01
  4.284258e+00    3.916262e+01
  4.305520e+00    3.822980e+01
  4.326782e+00    5.322742e+01
  4.348044e+00    3.926972e+01
  4.369306e+00    3.235743e+01
  4.390568e+00    3.661336e+01
  4.411831e+00    5.252398e+01
  4.433093e+00    3.811026e+01
  4.454355e+00    5.575612e+01
  4.475617e+00    8.073947e+01
  4.496879e+00    5.608806e+01
  4.518142e+00    2.792472e+01
  4.539404e+00    2.905983e+01
  4.560666e+00    3.152255e+01
  4.581928e+00    2.944588e+01
  4.603190e+00    5.057260e+01
  4.624452e+00    6.681637e+01
  4.645715e+00    3.958246e+01
  4.666977e+00    2.983056e+01
  4.688239e+00    3.248908e+01
  4.709501e+00    3.475328e+01
  4.730763e+00    3.090683e+01
  4.752025e+00    4.680118e+01
  4.773288e+00    6.283095e+01
  4.794550e+00    3.793399e+01
  4.815812e+00    8.087620e+01
  4.837074e+00    1.077171e+02
  4.858336e+00    7.003162e+01
  4.879599e+00    3.642702e+01
  4.900861e+00    5.148700e+01
  4.922123e+00    1.189527e+02
  4.943385e+00    1.787750e+02
  4.964647e+00    4.822572e+02
  4.985909e+00    1.118384e+03
  5.007172e+00    2.968395e+03
  5.028434e+00    6.295070e+03
  5.049696e+00    6.727052e+03
  5.070958e+00    4.078397e+03
  5.092220e+00    1.571872e+03
  5.113482e+00    5.893565e+02
  5.134745e+00    2.927383e+02
  5.156007e+00    6.988750e+01
  5.177269e+00    1.341924e+02
  5.198531e+00    1.216565e+02
  5.219793e+00    5.588538e+01
  5.241056e+00    3.706683e+01
  5.262318e+00    4.536771e+01
  5.283580e+00    4.474240e+01
  5.304842e+00    4.102867e+01
  5.326104e+00    1.031463e+02
  5.347366e+00    1.024847e+02
  5.368629e+00    3.630679e+01
  5.389891e+00    3.279011e+01
  5.411153e+00    3.748253e+01
  5.432415e+00    3.478894e+01
  5.453677e+00    3.943282e+01
  5.474939e+00    7.666576e+01
  5.496202e+00    6.640955e+01
  5.517464e+00    3.320760e+01
  5.538726e+00    3.547080e+01
  5.559988e+00    4.002245e+01
  5.581250e+00    3.403597e+01
  5.602512e+00    4.523916e+01
  5.623775e+00    6.222780e+01
  5.645037e+00    3.899875e+01
  5.666299e+00    6.971066e+01
  5.687561e+00    1.197217e+02
  5.708823e+00    9.366836e+01
  5.730086e+00    3.910003e+01
  5.751348e+00    4.504009e+01
  5.772610e+00    7.030665e+01
  5.793872e+00    6.208931e+01
  5.815134e+00    1.943076e+02
  5.836396e+00    6.134202e+02
  5.857659e+00    1.311584e+03
  5.878921e+00    3.090415e+03
  5.900183e+00    6.132351e+03
  5.921445e+00    6.562791e+03
  5.942707e+00    3.523201e+03
  5.963969e+00    1.428349e+03
  5.985232e+00    6.964971e+02
  6.006494e+00    2.723293e+02
  6.027756e+00    1.706559e+02
  6.049018e+00    1.659013e+02
  6.070280e+00    9.346700e+01
  6.091543e+00    1.451401e+02
  6.112805e+00    4.408074e+02
  6.134067e+00    8.901083e+02
  6.155329e+00    1.827979e+03
  6.176591e+00    2.395463e+03
  6.197853e+00    1.802764e+03
  6.219116e+00    8.073599e+02
  6.240378e+00    3.662539e+02
  6.261640e+00    1.833932e+02
  6.282902e+00    9.410606e+01
  6.304164e+00    5.682008e+01
  6.325426e+00    1.161047e+02
  6.346689e+00    9.941560e+01
  6.367951e+00    3.052838e+01
  6.389213e+00    2.928510e+01
  6.410475e+00    2.942394e+01
  6.431737e+00    2.725616e+01
  6.452999e+00    4.197832e+01
  6.474262e+00    8.025284e+01
  6.495524e+00    5.491006e+01
  6.516786e+00    6.337813e+01
  6.538048e+00    1.000521e+02
  6.559310e+00    8.099805e+01
  6.580573e+00    2.389953e+01
  6.601835e+00    3.839170e+01
  6.623097e+00    5.163662e+01
  6.644359e+00    3.405665e+01
  6.665621e+00    6.905551e+01
  6.686883e+00    8.938673e+01
  6.708146e+00    5.110546e+01
  6.729408e+00    2.242161e+01
  6.750670e+00    2.558605e+01
  6.771932e+00    2.712106e+01
  6.793194e+00    2.692068e+01
  6.814456e+00    8.267037e+01
  6.835719e+00    9.173911e+01
  6.856981e+00    4.732788e+01
  6.878243e+00    8.369674e+01
  6.899505e+00    8.968793e+01
  6.920767e+00    3.786042e+01
  6.942030e+00    2.203505e+01
  6.963292e+00    4.269421e+01
  6.984554e+00    4.662419e+01
  7.005816e+00    4.081383e+01
  7.027078e+00    9.958895e+01
  7.048340e+00    1.250436e+02
  7.069603e+00    2.343483e+02
  7.090865e+00    4.671738e+02
  7.112127e+00    8.623848e+02
  7.133389e+00    1.039329e+03
  7.154651e+00    7.567795e+02
  7.175913e+00    4.023819e+02
  7.197176e+00    1.956628e+02
  7.218438e+00    5.967934e+01
  7.239700e+00    3.857307e+01
  7.260962e+00    3.913287e+01
  7.282224e+00    2.773930e+01
  7.303487e+00    6.058570e+01
  7.324749e+00    8.960217e+01
  7.346011e+00    5.517233e+01
  7.367273e+00    8.126539e+01
  7.388535e+00    9.658521e+01
  7.409797e+00    4.165220e+01
  7.431060e+00    2.362339e+01
  7.452322e+00    5.356768e+01
  7.473584e+00    4.410229e+01
  7.494846e+00    2.598259e+01
  7.516108e+00    1.021206e+02
  7.537370e+00    1.083078e+02
  7.558633e+00    4.009203e+01
  7.579895e+00    2.553937e+01
  7.601157e+00    3.215560e+01
  7.622419e+00    3.347795e+01
  7.643681e+00    4.152672e+01
  7.664943e+00    1.419522e+02
  7.686206e+00    1.878239e+02
  7.707468e+00    4.045674e+02
  7.728730e+00    7.542346e+02
  7.749992e+00    1.494589e+03
  7.771254e+00    2.004636e+03
  7.792517e+00    1.478071e+03
  7.813779e+00    8.187349e+02
  7.835041e+00    4.095751e+02
  7.856303e+00    1.992571e+02
  7.877565e+00    1.963741e+02
  7.898827e+00    2.533576e+02
  7.920090e+00    5.718520e+02
  7.941352e+00    1.213850e+03
  7.962614e+00    1.895551e+03
  7.983876e+00    1.884681e+03
  8.005138e+00    1.101403e+03
  8.026400e+00    5.084136e+02
  8.047663e+00    2.456729e+02
  8.068925e+00    1.651035e+02
  8.090187e+00    1.112129e+02
  8.111449e+00    3.651868e+01
  8.132711e+00    4.639022e+01
  8.153974e+00    9.674475e+01
  8.175236e+00    6.777819e+01
  8.196498e+00    6.938123e+01
  8.217760e+00    1.082659e+02
  8.239022e+00    7.823902e+01
  8.260284e+00    3.047480e+01
  8.281547e+00    5.309488e+01
  8.302809e+00    6.964860e+01
  8.324071e+00    3.533335e+01
  8.345333e+00    9.185507e+01
  8.366595e+00    8.983100e+01
  8.387857e+00    1.931433e+01
  8.409120e+00    1.491781e+01
  8.430382e+00    1.625777e+01
  8.451644e+00    1.814520e+01
  8.472906e+00    1.844914e+01
  8.494168e+00    1.870869e+01
  8.515431e+00    2.073710e+01
  8.536693e+00    2.295213e+01
  8.557955e+00    3.521868e+01
  8.579217e+00    3.194103e+01
  8.600479e+00    2.149731e+01
  8.621741e+00    2.746939e+01
  8.643004e+00    9.391382e+01
  8.664266e+00    1.891950e+02
  8.685528e+00    4.395050e+02
  8.706790e+00    8.422838e+02
  8.728052e+00    1.213814e+03
  8.749314e+00    1.081432e+03
  8.770577e+00    5.949432e+02
  8.791839e+00    3.198218e+02
  8.813101e+00    1.330822e+02
  8.834363e+00    4.451430e+01
  8.855625e+00    4.219397e+01
  8.876887e+00    2.508236e+01
  8.898150e+00    3.292524e+01
  8.919412e+00    2.914442e+01
  8.940674e+00    2.323787e+01
  8.961936e+00    2.942510e+01
  8.983198e+00    4.476804e+01
  9.004461e+00    2.779949e+01
  9.025723e+00    4.980864e+01
  9.046985e+00    7.756013e+01
  9.068247e+00    3.655248e+01
  9.089509e+00    2.251792e+01
  9.110771e+00    2.940105e+01
  9.132034e+00    4.019354e+01
  9.153296e+00    2.423359e+01
  9.174558e+00    1.226942e+02
  9.195820e+00    2.403475e+02
  9.217082e+00    4.774925e+02
  9.238344e+00    8.572911e+02
  9.259607e+00    1.224617e+03
  9.280869e+00    1.097901e+03
  9.302131e+00    5.693483e+02
  9.323393e+00    3.296414e+02
  9.344655e+00    1.237503e+02
  9.365918e+00    4.106686e+01
  9.387180e+00    3.973383e+01
  9.408442e+00    2.169625e+01
  9.429704e+00    1.659647e+01
  9.450966e+00    3.310711e+01
  9.472228e+00    3.665219e+01
  9.493491e+00    2.949044e+01
  9.514753e+00    7.745486e+01
  9.536015e+00    6.531385e+01
  9.557277e+00    1.805239e+01
  9.578539e+00    1.858222e+01
  9.599801e+00    3.286875e+01
  9.621064e+00    2.619896e+01
  9.642326e+00    4.625876e+01
  9.663588e+00    7.352260e+01
  9.684850e+00    3.947428e+01
  9.706112e+00    6.055989e+01
  9.727375e+00    7.558224e+01
  9.748637e+00    3.045647e+01
  9.769899e+00    1.947308e+01
  9.791161e+00    4.525658e+01
  9.812423e+00    4.165738e+01
  9.833685e+00    2.311045e+01
  9.854948e+00    4.790805e+01
  9.876210e+00    3.556774e+01
  9.897472e+00    1.995801e+01
  9.918734e+00    2.884314e+01
  9.939996e+00    4.677096e+01
  9.961258e+00    2.540742e+01
  9.982521e+00    5.035572e+01
  1.000378e+01    9.503541e+01
  1.002504e+01    1.526967e+02
  1.004631e+01    2.710396e+02
  1.006757e+01    3.912013e+02
  1.008883e+01    4.505113e+02
  1.011009e+01    3.601425e+02
  1.013136e+01    2.321341e+02
  1.015262e+01    1.200922e+02
  1.017388e+01    5.714854e+01
  1.019514e+01    8.640868e+01
  1.021640e+01    4.594447e+01
  1.023767e+01    2.237574e+01
  1.025893e+01    4.542083e+01
  1.028019e+01    6.531730e+01
  1.030145e+01    2.783892e+01
  1.032272e+01    8.269069e+01
  1.034398e+01    8.196902e+01
  1.036524e+01    2.848719e+01
  1.038650e+01    2.827371e+01
  1.040776e+01    2.778176e+01
  1.042903e+01    2.537192e+01
  1.045029e+01    2.810605e+01
  1.047155e+01    1.904914e+02
  1.049281e+01    2.888781e+02
  1.051407e+01    5.926659e+02
  1.053534e+01    9.187547e+02
  1.055660e+01    9.456066e+02
  1.057786e+01    6.491018e+02
  1.059912e+01    3.735208e+02
  1.062039e+01    1.927313e+02
  1.064165e+01    2.618308e+02
  1.066291e+01    4.327218e+02
  1.068417e+01    6.081728e+02
  1.070543e+01    6.517130e+02
  1.072670e+01    4.504509e+02
  1.074796e+01    2.828094e+02
  1.076922e+01    1.544766e+02
  1.079048e+01    1.068445e+02
  1.081175e+01    9.172810e+01
  1.083301e+01    2.988102e+01
  1.085427e+01    4.190508e+01
  1.087553e+01    3.616146e+01
  1.089679e+01    2.477220e+01
  1.091806e+01    6.202558e+01
  1.093932e+01    8.811992e+01
  1.096058e+01    3.981233e+01
  1.098184e+01    5.795420e+01
  1.100311e+01    7.115755e+01
  1.102437e+01    2.602430e+01
  1.104563e+01    2.519835e+01
  1.106689e+01    6.512291e+01
  1.108815e+01    5.754664e+01
  1.110942e+01    5.516172e+01
  1.113068e+01    8.531479e+01
  1.115194e+01    4.614668e+01
  1.117320e+01    2.272291e+01
  1.119446e+01    5.921033e+01
  1.121573e+01    1.549302e+02
  1.123699e+01    2.500183e+02
  1.125825e+01    3.947503e+02
  1.127951e+01    4.408295e+02
  1.130078e+01    3.325957e+02
  1.132204e+01    2.232206e+02
  1.134330e+01    1.174238e+02
  1.136456e+01    2.307706e+01
  1.138582e+01    4.409125e+01
  1.140709e+01    6.460113e+01
  1.142835e+01    2.449312e+01
  1.144961e+01    7.532204e+01
  1.147087e+01    7.018398e+01
  1.149214e+01    2.087697e+01
  1.151340e+01    3.452952e+01
  1.153466e+01    7.012693e+01
  1.155592e+01    4.853650e+01
  1.157718e+01    6.629868e+01
  1.159845e+01    9.233505e+01
  1.161971e+01    7.016926e+01
  1.164097e+01    1.905341e+02
  1.166223e+01    2.810403e+02
  1.168349e+01    3.678985e+02
  1.170476e+01    3.504720e+02
  1.172602e+01    2.636449e+02
  1.174728e+01    1.678413e+02
  1.176854e+01    1.521910e+02
  1.178981e+01    2.581240e+02
  1.181107e+01    3.535191e+02
  1.183233e+01    3.776087e+02
  1.185359e+01    2.990204e+02
  1.187485e+01    2.057587e+02
  1.189612e+01    9.641154e+01
  1.191738e+01    9.069028e+01
  1.193864e+01    4.377244e+01
  1.195990e+01    2.471344e+01
  1.198117e+01    3.830023e+01
  1.200243e+01    4.864940e+01
  1.202369e+01    2.826734e+01
  1.204495e+01    7.526817e+01
  1.206621e+01    6.179203e+01
  1.208748e+01    6.518259e+01
  1.210874e+01    9.075091e+01
  1.213000e+01    5.750206e+01
  1.215126e+01    2.754404e+01
  1.217252e+01    7.753941e+01
  1.219379e+01    7.199750e+01
  1.221505e+01    3.677153e+01
  1.223631e+01    7.654134e+01
  1.225757e+01    5.754926e+01
  1.227884e+01    3.383070e+01
  1.230010e+01    1.083655e+02
  1.232136e+01    1.603978e+02
  1.234262e+01    1.856020e+02
  1.236388e+01    1.866229e+02
  1.238515e+01    1.642551e+02
  1.240641e+01    1.124924e+02
  1.242767e+01    8.828817e+01
  1.244893e+01    4.945327e+01
  1.247020e+01    1.900590e+01
  1.249146e+01    7.164463e+01
  1.251272e+01    8.120239e+01
  1.253398e+01    4.090709e+01
  1.255524e+01    9.046372e+01
  1.257651e+01    7.323518e+01
  1.259777e+01    2.075271e+01
  1.261903e+01    5.783930e+01
  1.264029e+01    9.480199e+01
  1.266155e+01    1.033125e+02
  1.268282e+01    2.161785e+02
  1.270408e+01    3.120597e+02
  1.272534e+01    4.174452e+02
  1.274660e+01    4.067580e+02
  1.276787e+01    2.896119e+02
  1.278913e+01    1.862904e+02
  1.281039e+01    1.731511e+02
  1.283165e+01    2.403413e+02
  1.285291e+01    2.807510e+02
  1.287418e+01    2.645078e+02
  1.289544e+01    2.021200e+02
  1.291670e+01    1.176733e+02
  1.293796e+01    7.105936e+01
  1.295923e+01    8.539899e+01
  1.298049e+01    3.451188e+01
  1.300175e+01    9.109203e+01
  1.302301e+01    8.355507e+01
  1.304427e+01    1.936069e+01
  1.306554e+01    3.964753e+01
  1.308680e+01    7.847570e+01
  1.310806e+01    3.924284e+01
  1.312932e+01    8.835521e+01
  1.315058e+01    7.268947e+01
  1.317185e+01    5.150474e+00
  1.319311e+01    6.453813e+00
  1.321437e+01    9.009165e+00
  1.323563e+01    1.209610e+01
  1.325690e+01    3.275568e+01
  1.327816e+01    1.121668e+02
  1.329942e+01    1.837265e+02
  1.332068e+01    3.007147e+02
  1.334194e+01    3.379367e+02
  1.336321e+01    2.889006e+02
  1.338447e+01    2.003381e+02
  1.340573e+01    1.306085e+02
  1.342699e+01    2.777148e+01
  1.344826e+01    5.587270e+01
  1.346952e+01    3.287252e+01
  1.349078e+01    1.710779e+01
  1.351204e+01    2.429091e+01
  1.353330e+01    1.787622e+01
  1.355457e+01    1.658156e+01
  1.357583e+01    3.804092e+01
  1.359709e+01    4.746217e+01
  1.361835e+01    4.241309e+01
  1.363961e+01    1.729885e+02
  1.366088e+01    2.570554e+02
  1.368214e+01    3.605529e+02
  1.370340e+01    3.932749e+02
  1.372466e+01    2.974460e+02
  1.374593e+01    1.946086e+02
  1.376719e+01    1.275475e+02
  1.378845e+01    2.892537e+01
  1.380971e+01    2.150840e+01
  1.383097e+01    4.466394e+01
  1.385224e+01    4.170036e+01
  1.387350e+01    5.043483e+01
  1.389476e+01    8.266736e+01
  1.391602e+01    4.170274e+01
  1.393729e+01    5.299689e+01
  1.395855e+01    5.857195e+01
  1.397981e+01    2.219367e+01
  1.400107e+01    3.520491e+01
  1.402233e+01    6.540884e+01
  1.404360e+01    3.390893e+01
  1.406486e+01    5.735427e+01
  1.408612e+01    6.932243e+01
  1.410738e+01    2.497684e+01
  1.412864e+01    2.737771e+01
  1.414991e+01    5.991505e+01
  1.417117e+01    3.306128e+01
  1.419243e+01    6.339637e+01
  1.421369e+01    8.124094e+01
  1.423496e+01    9.766628e+01
  1.425622e+01    1.198869e+02
  1.427748e+01    1.219966e+02
  1.429874e+01    9.916779e+01
  1.432000e+01    7.691915e+01
  1.434127e+01    4.651684e+01
  1.436253e+01    3.856767e+01
  1.438379e+01    8.222163e+01
  1.440505e+01    5.540843e+01
  1.442632e+01    2.693131e+01
  1.444758e+01    6.468816e+01
  1.446884e+01    6.591317e+01
  1.449010e+01    5.424590e+01
  1.451136e+01    8.732534e+01
  1.453263e+01    6.989805e+01
  1.455389e+01    1.177458e+02
  1.457515e+01    1.560970e+02
  1.459641e+01    1.715787e+02
  1.461767e+01    1.550288e+02
  1.463894e+01    1.419491e+02
  1.466020e+01    1.596331e+02
  1.468146e+01    2.248485e+02
  1.470272e+01    2.432262e+02
  1.472399e+01    2.093838e+02
  1.474525e+01    1.517453e+02
  1.476651e+01    1.135678e+02
  1.478777e+01    4.967091e+01
  1.480903e+01    8.647075e+01
  1.483030e+01    6.834347e+01
  1.485156e+01    3.431421e+01
  1.487282e+01    7.363894e+01
  1.489408e+01    8.514033e+01
  1.491535e+01    5.189261e+01
  1.493661e+01    7.380409e+01
  1.495787e+01    4.909869e+01
  1.497913e+01    4.450716e+01
  1.500039e+01    5.642984e+01
  1.502166e+01    4.886629e+01
  1.504292e+01    5.268200e+01
  1.506418e+01    9.725922e+01
  1.508544e+01    1.181261e+02
  1.510670e+01    1.719729e+02
  1.512797e+01    1.899176e+02
  1.514923e+01    1.741699e+02
  1.517049e+01    1.340858e+02
  1.519175e+01    1.080175e+02
  1.521302e+01    3.234557e+01
  1.523428e+01    8.903702e+01
  1.525554e+01    7.527358e+01
  1.527680e+01    3.536794e+01
  1.529806e+01    6.941673e+01
  1.531933e+01    7.573142e+01
  1.534059e+01    3.731280e+01
  1.536185e+01    9.571876e+01
  1.538311e+01    9.742790e+01
  1.540438e+01    1.589353e+02
  1.542564e+01    2.001277e+02
  1.544690e+01    2.038800e+02
  1.546816e+01    1.762146e+02
  1.548942e+01    1.481272e+02
  1.551069e+01    1.018581e+02
  1.553195e+01    1.488621e+02
  1.555321e+01    1.460542e+02
  1.557447e+01    1.159469e+02
  1.559573e+01    9.472044e+01
  1.561700e+01    8.121472e+01
  1.563826e+01    4.544617e+01
  1.565952e+01    8.004852e+01
  1.568078e+01    5.925596e+01
  1.570205e+01    5.762857e+01
  1.572331e+01    6.376217e+01
  1.574457e+01    4.514220e+01
  1.576583e+01    6.602309e+01
  1.578709e+01    8.596594e+01
  1.580836e+01    5.141800e+01
  1.582962e+01    8.769131e+01
  1.585088e+01    1.089710e+02
  1.587214e+01    2.226068e+03
  1.589341e+01    9.761072e+01
  1.591467e+01    1.160167e+02
  1.593593e+01    1.291393e+02
  1.595719e+01    1.393555e+02
  1.597845e+01    1.152133e+02
  1.599972e+01    9.199216e+01
  1.602098e+01    7.657314e+01
  1.604224e+01    5.720293e+01
  1.606350e+01    6.907251e+01
  1.608476e+01    8.226784e+01
  1.610603e+01    5.094054e+01
  1.612729e+01    8.587173e+01
  1.614855e+01    6.671555e+01
  1.616981e+01    4.994466e+01
  1.619108e+01    1.258551e+02
  1.621234e+01    1.579094e+02
  1.623360e+01    1.949122e+02
  1.625486e+01    2.050005e+02
  1.627612e+01    1.600928e+02
  1.629739e+01    9.520886e+01
  1.631865e+01    1.481635e+02
  1.633991e+01    1.535103e+02
  1.636117e+01    1.528332e+02
  1.638244e+01    1.246626e+02
  1.640370e+01    7.281579e+01
  1.642496e+01    7.241936e+01
  1.644622e+01    6.492676e+01
  1.646748e+01    6.894633e+01
  1.648875e+01    8.711769e+01
  1.651001e+01    6.851623e+01
  1.653127e+01    8.565834e+01
  1.655253e+01    8.069424e+01
  1.657379e+01    5.318331e+01
  1.659506e+01    7.521277e+01
  1.661632e+01    8.313427e+01
  1.663758e+01    6.790610e+01
  1.665884e+01    9.173100e+01
  1.668011e+01    8.058600e+01
  1.670137e+01    9.946415e+01
  1.672263e+01    1.158348e+02
  1.674389e+01    1.113478e+02
  1.676515e+01    9.939965e+01
  1.678642e+01    9.229757e+01
  1.680768e+01    7.442208e+01
  1.682894e+01    8.577185e+01
  1.685020e+01    6.719013e+01
  1.687147e+01    4.964169e+01
  1.689273e+01    8.439977e+01
  1.691399e+01    7.387165e+01
  1.693525e+01    7.701307e+01
  1.695651e+01    9.159590e+01
  1.697778e+01    1.086128e+02
  1.699904e+01    1.341510e+02
  1.702030e+01    1.382692e+02
  1.704156e+01    1.063171e+02
  1.706283e+01    9.660679e+01
  1.708409e+01    6.589080e+01
  1.710535e+01    7.761592e+01
  1.712661e+01    8.010442e+01
  1.714787e+01    7.011777e+01
  1.716914e+01    7.794578e+01
  1.719040e+01    8.051895e+01
  1.721166e+01    7.460439e+01
  1.723292e+01    8.396789e+01
  1.725418e+01    6.463645e+01
  1.727545e+01    6.950789e+01
  1.729671e+01    8.429240e+01
  1.731797e+01    7.177454e+01
  1.733923e+01    8.227728e+01
  1.736050e+01    7.943056e+01
  1.738176e+01    6.611934e+01
  1.740302e+01    7.707305e+01
  1.742428e+01    8.700128e+01
  1.744554e+01    9.852434e+01
  1.746681e+01    1.099598e+02
  1.748807e+01    9.692877e+01
  1.750933e+01    9.778751e+01
  1.753059e+01    7.864447e+01
  1.755186e+01    6.815323e+01
  1.757312e+01    8.272189e+01
  1.759438e+01    8.051107e+01
  1.761564e+01    8.440320e+01
  1.763690e+01    8.512381e+01
  1.765817e+01    7.154430e+01
  1.767943e+01    8.224892e+01
  1.770069e+01    1.098059e+02
  1.772195e+01    1.269657e+02
  1.774321e+01    1.442448e+02
  1.776448e+01    1.288432e+02
  1.778574e+01    1.146074e+02
  1.780700e+01    1.071712e+02
  1.782826e+01    1.007831e+02
  1.784953e+01    1.086848e+02
  1.787079e+01    9.684705e+01
  1.789205e+01    8.161839e+01
  1.791331e+01    8.643626e+01
  1.793457e+01    7.477854e+01
  1.795584e+01    8.191458e+01
  1.797710e+01    8.812141e+01
  1.799836e+01    7.778076e+01
  1.801962e+01    8.491298e+01
  1.804089e+01    7.544130e+01
  1.806215e+01    8.088378e+01
  1.808341e+01    9.026707e+01
  1.810467e+01    8.175519e+01
  1.812593e+01    8.797729e+01
  1.814720e+01    1.049622e+02
  1.816846e+01    1.265182e+02
  1.818972e+01    1.368823e+02
  1.821098e+01    1.200835e+02
  1.823224e+01    1.019684e+02
  1.825351e+01    9.194333e+01
  1.827477e+01    8.179221e+01
  1.829603e+01    8.859882e+01
  1.831729e+01    7.508407e+01
  1.833856e+01    7.870075e+01
  1.835982e+01    8.955756e+01
  1.838108e+01    7.813672e+01
  1.840234e+01    1.037438e+02
  1.842360e+01    1.153661e+02
  1.844487e+01    1.256143e+02
  1.846613e+01    1.252449e+02
  1.848739e+01    9.995794e+01
  1.850865e+01    1.048678e+02
  1.852992e+01    1.084248e+02
  1.855118e+01    9.969086e+01
  1.857244e+01    9.717610e+01
  1.859370e+01    8.407431e+01
  1.861496e+01    8.267967e+01
  1.863623e+01    8.582066e+01
  1.865749e+01    7.701531e+01
  1.867875e+01    8.351799e+01
  1.870001e+01    7.830940e+01
  1.872127e+01    7.628640e+01
  1.874254e+01    8.222032e+01
  1.876380e+01    7.813232e+01
  1.878506e+01    8.096287e+01
  1.880632e+01    7.989445e+01
  1.882759e+01    8.209627e+01
  1.884885e+01    8.367856e+01
  1.887011e+01    7.489277e+01
  1.889137e+01    7.774477e+01
  1.891263e+01    7.968941e+01
  1.893390e+01    7.628010e+01
  1.895516e+01    8.242191e+01
  1.897642e+01    4.624720e+01
  1.899768e+01    2.162270e+01
  1.901895e+01    5.491765e+01
  1.904021e+01    4.519600e+01
  1.906147e+01    6.775284e+01
  1.908273e+01    7.134668e+01
  1.910399e+01    9.375797e+01
  1.912526e+01    9.085648e+01
  1.914652e+01    7.609343e+01
  1.916778e+01    9.279441e+01
  1.918904e+01    9.781163e+01
  1.921030e+01    1.055695e+02
  1.923157e+01    9.851408e+01
  1.925283e+01    7.443422e+01
  1.927409e+01    7.698647e+01
  1.929535e+01    7.313408e+01
  1.931662e+01    7.692852e+01
  1.933788e+01    7.503697e+01
  1.935914e+01    7.159171e+01
  1.938040e+01    7.379996e+01
  1.940166e+01    7.504570e+01
  1.942293e+01    7.559128e+01
  1.944419e+01    7.859684e+01
  1.946545e+01    7.390585e+01
  1.948671e+01    8.461469e+01
  1.950798e+01    8.194598e+01
  1.952924e+01    9.144301e+01
  1.955050e+01    9.254275e+01
  1.957176e+01    8.311640e+01
  1.959302e+01    8.064555e+01
  1.961429e+01    7.014032e+01
  1.963555e+01    7.270821e+01
  1.965681e+01    7.936104e+01
  1.967807e+01    7.215648e+01
  1.969933e+01    7.813117e+01
  1.972060e+01    7.736310e+01
  1.974186e+01    8.514262e+01
  1.976312e+01    8.647884e+01
  1.978438e+01    8.930737e+01
  1.980565e+01    8.930487e+01
  1.982691e+01    7.537891e+01
  1.984817e+01    7.671061e+01
  1.986943e+01    7.493024e+01
  1.989069e+01    7.400536e+01
  1.991196e+01    7.732963e+01
  1.993322e+01    7.507596e+01
  1.995448e+01    7.828510e+01
  1.997574e+01    7.540806e+01
  1.999701e+01    7.244513e+01
  2.001827e+01    7.557357e+01
  2.003953e+01    7.256598e+01
  2.006079e+01    7.719270e+01
  2.008205e+01    7.452489e+01
  2.010332e+01    7.842165e+01
  2.012458e+01    7.676736e+01
  2.014584e+01    7.533551e+01
  2.016710e+01    8.058654e+01
  2.018836e+01    7.792838e+01
  2.020963e+01    7.915178e+01
  2.023089e+01    7.620579e+01
  2.025215e+01    7.542790e+01
  2.027341e+01    7.896522e+01
  2.029468e+01    7.749950e+01
  2.031594e+01    7.928863e+01
  2.033720e+01    7.740422e+01
  2.035846e+01    8.511848e+01
  2.037972e+01    9.355306e+01
  2.040099e+01    1.029307e+02
  2.042225e+01    1.067323e+02
  2.044351e+01    9.927325e+01
  2.046477e+01    9.555454e+01
  2.048604e+01    8.997324e+01
  2.050730e+01    8.542532e+01
  2.052856e+01    8.561554e+01
  2.054982e+01    7.853293e+01
  2.057108e+01    7.749403e+01
  2.059235e+01    7.714699e+01
  2.061361e+01    7.614986e+01
  2.063487e+01    7.685128e+01
  2.065613e+01    7.715548e+01
  2.067739e+01    7.876041e+01
  2.069866e+01    7.679350e+01
  2.071992e+01    7.719800e+01
  2.074118e+01    7.656091e+01
  2.076244e+01    7.873453e+01
  2.078371e+01    8.593793e+01
  2.080497e+01    8.481151e+01
  2.082623e+01    8.248973e+01
  2.084749e+01    7.788158e+01
  2.086875e+01    7.712389e+01
  2.089002e+01    7.838449e+01
  2.091128e+01    7.817361e+01
  2.093254e+01    7.785081e+01
  2.095380e+01    7.738072e+01
  2.097507e+01    8.151584e+01
  2.099633e+01    8.449616e+01
  2.101759e+01    8.858478e+01
  2.103885e+01    9.089855e+01
  2.106011e+01    8.798820e+01
  2.108138e+01    8.670042e+01
  2.110264e+01    8.420080e+01
  2.112390e+01    8.310072e+01
  2.114516e+01    7.197279e+01
  2.116642e+01    5.124823e+01
  2.118769e+01    6.193089e+01
  2.120895e+01    6.263098e+01
  2.123021e+01    6.996546e+01
  2.125147e+01    6.799876e+01
  2.127274e+01    7.001014e+01
  2.129400e+01    6.870804e+01
  2.131526e+01    6.906733e+01
  2.133652e+01    6.882249e+01
  2.135778e+01    6.697359e+01
  2.137905e+01    7.386501e+01
  2.140031e+01    7.288783e+01
  2.142157e+01    7.568996e+01
  2.144283e+01    7.284513e+01
  2.146410e+01    6.959167e+01
  2.148536e+01    7.018459e+01
  2.150662e+01    6.946333e+01
  2.152788e+01    7.186485e+01
  2.154914e+01    7.006361e+01
  2.157041e+01    7.323637e+01
  2.159167e+01    7.351772e+01
  2.161293e+01    7.793513e+01
  2.163419e+01    7.874583e+01
  2.165545e+01    7.674461e+01
  2.167672e+01    7.473509e+01
  2.169798e+01    7.258134e+01
  2.171924e+01    7.304117e+01
  2.174050e+01    6.997971e+01
  2.176177e+01    7.070502e+01
  2.178303e+01    6.969385e+01
  2.180429e+01    6.916584e+01
  2.182555e+01    7.051008e+01
  2.184681e+01    6.843571e+01
  2.186808e+01    6.931931e+01
  2.188934e+01    6.917390e+01
  2.191060e+01    7.043653e+01
  2.193186e+01    7.103543e+01
  2.195313e+01    7.394296e+01
  2.197439e+01    7.711584e+01
  2.199565e+01    7.728540e+01
  2.201691e+01    7.555737e+01
  2.203817e+01    7.150451e+01
  2.205944e+01    7.098810e+01
  2.208070e+01    7.005934e+01
  2.210196e+01    6.939854e+01
  2.212322e+01    6.896021e+01
  2.214448e+01    7.096780e+01
  2.216575e+01    7.293250e+01
  2.218701e+01    7.704657e+01
  2.220827e+01    7.859619e+01
  2.222953e+01    7.542381e+01
  2.225080e+01    7.241017e+01
  2.227206e+01    6.997756e+01
  2.229332e+01    6.894311e+01
  2.231458e+01    6.835017e+01
  2.233584e+01    6.734563e+01
  2.235711e+01    6.644067e+01
  2.237837e+01    6.708164e+01
  2.239963e+01    6.744003e+01
  2.242089e+01    6.660484e+01
  2.244216e+01    6.710484e+01
  2.246342e+01    6.713586e+01
  2.248468e+01    6.756451e+01
  2.250594e+01    6.708030e+01
  2.252720e+01    6.812253e+01
  2.254847e+01    6.823802e+01
  2.256973e+01    6.833250e+01
  2.259099e+01    6.735580e+01
  2.261225e+01    6.667538e+01
  2.263351e+01    6.712851e+01
  2.265478e+01    6.592931e+01
  2.267604e+01    6.620562e+01
  2.269730e+01    6.732445e+01
  2.271856e+01    6.743840e+01
  2.273983e+01    6.736618e+01
  2.276109e+01    6.873217e+01
  2.278235e+01    6.890930e+01
  2.280361e+01    7.165057e+01
  2.282487e+01    7.237455e+01
  2.284614e+01    7.237215e+01
  2.286740e+01    7.119227e+01
  2.288866e+01    6.843922e+01
  2.290992e+01    6.738011e+01
  2.293119e+01    6.579131e+01
  2.295245e+01    6.557860e+01
  2.297371e+01    6.499134e+01
  2.299497e+01    6.565331e+01
  2.301623e+01    6.521275e+01
  2.303750e+01    6.648932e+01
  2.305876e+01    6.632393e+01
  2.308002e+01    6.722761e+01
  2.310128e+01    6.823038e+01
  2.312254e+01    6.855370e+01
  2.314381e+01    6.773334e+01
  2.316507e+01    6.658247e+01
  2.318633e+01    6.643394e+01
  2.320759e+01    6.544153e+01
  2.322886e+01    6.572095e+01
  2.325012e+01    6.653719e+01
  2.327138e+01    6.758612e+01
  2.329264e+01    7.023444e+01
  2.331390e+01    7.219483e+01
  2.333517e+01    7.121528e+01
  2.335643e+01    6.931582e+01
  2.337769e+01    6.691821e+01
  2.339895e+01    6.646441e+01
  2.342022e+01    6.540211e+01
  2.344148e+01    6.424781e+01
  2.346274e+01    6.424335e+01
  2.348400e+01    6.409816e+01
  2.350526e+01    6.367927e+01
  2.352653e+01    6.339421e+01
  2.354779e+01    6.329929e+01
  2.356905e+01    6.300233e+01
  2.359031e+01    6.352277e+01
  2.361158e+01    6.356870e+01
  2.363284e+01    6.380183e+01
  2.365410e+01    6.372867e+01
  2.367536e+01    6.368748e+01
  2.369662e+01    6.377771e+01
  2.371789e+01    6.327007e+01
  2.373915e+01    6.345086e+01
  2.376041e+01    6.345541e+01
  2.378167e+01    6.388050e+01
  2.380293e+01    6.492739e+01
  2.382420e+01    6.629391e+01
  2.384546e+01    6.849976e+01
  2.386672e+01    6.904845e+01
  2.388798e+01    6.867467e+01
  2.390925e+01    6.774822e+01
  2.393051e+01    6.627750e+01
  2.395177e+01    6.463721e+01
  2.397303e+01    6.361889e+01
  2.399429e+01    6.275110e+01
  2.401556e+01    6.179418e+01
  2.403682e+01    6.133767e+01
  2.405808e+01    6.157309e+01
  2.407934e+01    6.164043e+01
  2.410061e+01    6.090810e+01
  2.412187e+01    6.129879e+01
  2.414313e+01    6.118264e+01
  2.416439e+01    6.170061e+01
  2.418565e+01    6.211175e+01
  2.420692e+01    6.190797e+01
  2.422818e+01    6.120180e+01
  2.424944e+01    6.047442e+01
  2.427070e+01    6.003875e+01
  2.429196e+01    6.001013e+01
  2.431323e+01    5.938500e+01
  2.433449e+01    5.981216e+01
  2.435575e+01    5.990530e+01
  2.437701e+01    6.026509e+01
  2.439828e+01    6.012172e+01
  2.441954e+01    5.997364e+01
  2.444080e+01    5.890643e+01
  2.446206e+01    5.868903e+01
  2.448332e+01    5.860061e+01
  2.450459e+01    5.794081e+01
  2.452585e+01    5.795024e+01
  2.454711e+01    5.802593e+01
  2.456837e+01    5.779649e+01
  2.458964e+01    5.829856e+01
  2.461090e+01    5.875945e+01
  2.463216e+01    5.831514e+01
  2.465342e+01    5.829940e+01
  2.467468e+01    5.856178e+01
  2.469595e+01    5.827733e+01
  2.471721e+01    5.840491e+01
  2.473847e+01    5.839153e+01
  2.475973e+01    5.829994e+01
  2.478099e+01    5.825123e+01
  2.480226e+01    5.813470e+01
  2.482352e+01    5.819878e+01
  2.484478e+01    5.773315e+01
  2.486604e+01    5.720292e+01
  2.488731e+01    5.722147e+01
  2.490857e+01    5.680764e+01
  2.492983e+01    5.547268e+01
  2.495109e+01    5.398491e+01
  2.497235e+01    5.272399e+01
  2.499362e+01    5.126527e+01
  2.501488e+01    4.996748e+01
  2.503614e+01    4.841510e+01
  2.505740e+01    4.727346e+01
  2.507867e+01    4.785782e+01
  2.509993e+01    4.860313e+01
  2.512119e+01    4.873604e+01
  2.514245e+01    4.893280e+01
  2.516371e+01    4.876898e+01
  2.518498e+01    4.906713e+01
  2.520624e+01    4.948402e+01
  2.522750e+01    4.937611e+01
  2.524876e+01    4.827369e+01
  2.527002e+01    4.747862e+01
  2.529129e+01    4.620466e+01
  2.531255e+01    4.532262e+01
  2.533381e+01    4.493825e+01
  2.535507e+01    4.408646e+01
  2.537634e+01    4.553438e+01
  2.539760e+01    4.593663e+01
  2.541886e+01    4.547031e+01
  2.544012e+01    4.667940e+01
  2.546138e+01    4.666833e+01
  2.548265e+01    4.624671e+01
  2.550391e+01    4.601370e+01
  2.552517e+01    4.514488e+01
  2.554643e+01    4.438706e+01
  2.556770e+01    4.442290e+01
  2.558896e+01    4.385622e+01
  2.561022e+01    4.373022e+01
  2.563148e+01    4.317396e+01
  2.565274e+01    4.263160e+01
  2.567401e+01    4.182881e+01
  2.569527e+01    4.121692e+01
  2.571653e+01    4.172042e+01
  2.573779e+01    4.220776e+01
  2.575905e+01    4.229686e+01
  2.578032e+01    4.195208e+01
  2.580158e+01    4.233623e+01
  2.582284e+01    4.196585e+01
  2.584410e+01    4.246367e+01
  2.586537e+01    4.265661e+01
  2.588663e+01    4.342551e+01
  2.590789e+01    4.385519e+01
  2.592915e+01    4.413372e+01
  2.595041e+01    4.392606e+01
  2.597168e+01    4.343668e+01
  2.599294e+01    4.279347e+01
  2.601420e+01    4.272227e+01
  2.603546e+01    4.230678e+01
  2.605673e+01    4.191042e+01
  2.607799e+01    4.233700e+01
  2.609925e+01    4.216316e+01
  2.612051e+01    4.209472e+01
  2.614177e+01    4.217338e+01
  2.616304e+01    4.185574e+01
  2.618430e+01    4.205353e+01
  2.620556e+01    4.249549e+01
  2.622682e+01    4.199516e+01
  2.624808e+01    4.219142e+01
  2.626935e+01    4.123008e+01
  2.629061e+01    4.107936e+01
  2.631187e+01    4.078341e+01
  2.633313e+01    4.048943e+01
  2.635440e+01    4.081801e+01
  2.637566e+01    4.125247e+01
  2.639692e+01    4.102581e+01
  2.641818e+01    4.114095e+01
  2.643944e+01    4.149752e+01
  2.646071e+01    4.049939e+01
  2.648197e+01    3.957650e+01
  2.650323e+01    3.958242e+01
  2.652449e+01    3.989692e+01
  2.654576e+01    3.972033e+01
  2.656702e+01    3.959268e+01
  2.658828e+01    3.964563e+01
  2.660954e+01    3.973287e+01
  2.663080e+01    3.941105e+01
  2.665207e+01    4.009960e+01
  2.667333e+01    4.007952e+01
  2.669459e+01    3.961961e+01
  2.671585e+01    3.950164e+01
  2.673711e+01    3.883902e+01
  2.675838e+01    3.851611e+01
  2.677964e+01    3.902113e+01
  2.680090e+01    3.825144e+01
  2.682216e+01    3.871969e+01
  2.684343e+01    3.927908e+01
  2.686469e+01    3.932377e+01
  2.688595e+01    3.931779e+01
  2.690721e+01    3.909172e+01
  2.692847e+01    3.952105e+01
  2.694974e+01    3.872431e+01
  2.697100e+01    3.815562e+01
  2.699226e+01    3.729254e+01
  2.701352e+01    3.740751e+01
  2.703479e+01    3.706535e+01
  2.705605e+01    3.751630e+01
  2.707731e+01    3.766100e+01
  2.709857e+01    3.731224e+01
  2.711983e+01    3.699821e+01
  2.714110e+01    3.692854e+01
  2.716236e+01    3.670638e+01
  2.718362e+01    3.597729e+01
  2.720488e+01    3.597022e+01
  2.722614e+01    3.607211e+01
  2.724741e+01    3.689462e+01
  2.726867e+01    3.594913e+01
  2.728993e+01    3.592643e+01
  2.731119e+01    3.689934e+01
  2.733246e+01    3.666586e+01
  2.735372e+01    3.671386e+01
  2.737498e+01    3.691026e+01
  2.739624e+01    3.660902e+01
  2.741750e+01    3.605187e+01
  2.743877e+01    3.542494e+01
  2.746003e+01    3.481251e+01
  2.748129e+01    3.468382e+01
  2.750255e+01    3.505893e+01
  2.752382e+01    3.500307e+01
  2.754508e+01    3.517182e+01
  2.756634e+01    3.500529e+01
  2.758760e+01    3.437347e+01
  2.760886e+01    3.453593e+01
  2.763013e+01    3.482627e+01
  2.765139e+01    3.472473e+01
  2.767265e+01    3.427933e+01
  2.769391e+01    3.356545e+01
  2.771517e+01    3.367212e+01
  2.773644e+01    3.389017e+01
  2.775770e+01    3.367091e+01
  2.777896e+01    3.400466e+01
  2.780022e+01    3.454350e+01
  2.782149e+01    3.451509e+01
  2.784275e+01    3.394923e+01
  2.786401e+01    3.403014e+01
  2.788527e+01    3.415187e+01
  2.790653e+01    3.412513e+01
  2.792780e+01    3.359250e+01
  2.794906e+01    3.355700e+01
  2.797032e+01    3.371570e+01
  2.799158e+01    3.320789e+01
  2.801285e+01    3.273999e+01
  2.803411e+01    3.285961e+01
  2.805537e+01    3.314206e+01
  2.807663e+01    3.317155e+01
  2.809789e+01    3.285138e+01
  2.811916e+01    3.228026e+01
  2.814042e+01    3.230324e+01
  2.816168e+01    3.282893e+01
  2.818294e+01    3.251711e+01
  2.820420e+01    3.111741e+01
  2.822547e+01    3.310517e+01
  2.824673e+01    3.289595e+01
  2.826799e+01    3.233904e+01
  2.828925e+01    3.197349e+01
  2.831052e+01    3.192469e+01
  2.833178e+01    3.163347e+01
  2.835304e+01    3.143547e+01
  2.837430e+01    3.166283e+01
  2.839556e+01    3.155631e+01
  2.841683e+01    3.142657e+01
  2.843809e+01    3.156990e+01
  2.845935e+01    3.116078e+01
  2.848061e+01    3.140327e+01
  2.850188e+01    3.109164e+01
  2.852314e+01    3.094514e+01
  2.854440e+01    3.083280e+01
  2.856566e+01    3.042130e+01
  2.858692e+01    3.105610e+01
  2.860819e+01    3.084040e+01
  2.862945e+01    3.061391e+01
  2.865071e+01    3.039655e+01
  2.867197e+01    3.135849e+01
  2.869323e+01    3.114784e+01
  2.871450e+01    3.052372e+01
  2.873576e+01    3.082139e+01
  2.875702e+01    3.064578e+01
  2.877828e+01    3.041380e+01
  2.879955e+01    2.895672e+01
  2.882081e+01    2.969285e+01
  2.884207e+01    2.926783e+01
  2.886333e+01    2.935187e+01
  2.888459e+01    2.994755e+01
  2.890586e+01    2.899379e+01
  2.892712e+01    2.922464e+01
  2.894838e+01    2.942024e+01
  2.896964e+01    2.949329e+01
  2.899091e+01    2.917585e+01
  2.901217e+01    2.934698e+01
  2.903343e+01    2.872039e+01
  2.905469e+01    2.872009e+01
  2.907595e+01    2.872156e+01
  2.909722e+01    2.854333e+01
  2.911848e+01    2.859360e+01
  2.913974e+01    2.830391e+01
  2.916100e+01    2.823651e+01
  2.918226e+01    2.857366e+01
  2.920353e+01    2.858601e+01
  2.922479e+01    2.880447e+01
  2.924605e+01    2.812154e+01
  2.926731e+01    2.781487e+01
  2.928858e+01    2.795112e+01
  2.930984e+01    2.753648e+01
  2.933110e+01    2.754353e+01
  2.935236e+01    2.787296e+01
  2.937362e+01    2.725532e+01
  2.939489e+01    2.778434e+01
  2.941615e+01    2.710236e+01
  2.943741e+01    2.767293e+01
  2.945867e+01    2.722760e+01
  2.947994e+01    2.714544e+01
  2.950120e+01    2.694897e+01
  2.952246e+01    2.751788e+01
  2.954372e+01    2.706168e+01
  2.956498e+01    2.679777e+01
  2.958625e+01    2.719554e+01
  2.960751e+01    2.699521e+01
  2.962877e+01    2.695872e+01
  2.965003e+01    2.665002e+01
  2.967130e+01    2.589913e+01
  2.969256e+01    2.629042e+01
  2.971382e+01    2.588024e+01
  2.973508e+01    2.600027e+01
  2.975634e+01    2.600160e+01
  2.977761e+01    2.567960e+01
  2.979887e+01    2.601025e+01
  2.982013e+01    2.637780e+01
  2.984139e+01    2.591364e+01
  2.986265e+01    2.566957e+01
  2.988392e+01    2.545155e+01
  2.990518e+01    2.545447e+01
  2.992644e+01    2.567847e+01
  2.994770e+01    2.581647e+01
  2.996897e+01    2.544704e+01
  2.999023e+01    2.539590e+01
  3.001149e+01    2.532361e+01
  3.003275e+01    2.531393e+01
  3.005401e+01    2.505955e+01
  3.007528e+01    2.547830e+01
  3.009654e+01    2.503677e+01
  3.011780e+01    2.498292e+01
  3.013906e+01    2.478516e+01
  3.016033e+01    2.455240e+01
  3.018159e+01    2.490594e+01
  3.020285e+01    2.452931e+01
  3.022411e+01    2.440181e+01
  3.024537e+01    2.396070e+01
  3.026664e+01    2.443883e+01
  3.028790e+01    2.458939e+01
  3.030916e+01    2.423949e+01
  3.033042e+01    2.398219e+01
  3.035168e+01    2.409100e+01
  3.037295e+01    2.396171e+01
  3.039421e+01    2.389953e+01
  3.041547e+01    2.382478e+01
  3.043673e+01    2.356194e+01
  3.045800e+01    2.414394e+01
  3.047926e+01    2.374775e+01
  3.050052e+01    2.353345e+01
  3.052178e+01    2.322055e+01
  3.054304e+01    2.328157e+01
  3.056431e+01    2.331396e+01
  3.058557e+01    2.313805e+01
  3.060683e+01    2.280806e+01
  3.062809e+01    2.324393e+01
  3.064936e+01    2.335029e+01
  3.067062e+01    2.295242e+01
  3.069188e+01    2.290929e+01
  3.071314e+01    2.299687e+01
  3.073440e+01    2.277096e+01
  3.075567e+01    2.257766e+01
  3.077693e+01    2.258510e+01
  3.079819e+01    2.260581e+01
  3.081945e+01    2.240872e+01
  3.084071e+01    2.226991e+01
  3.086198e+01    2.197581e+01
  3.088324e+01    2.161831e+01
  3.090450e+01    2.170191e+01
  3.092576e+01    2.118555e+01
  3.094703e+01    2.120653e+01
  3.096829e+01    2.099166e+01
  3.098955e+01    2.028136e+01
  3.101081e+01    2.009657e+01
  3.103207e+01    1.934352e+01
  3.105334e+01    1.875562e+01
  3.107460e+01    1.858177e+01
  3.109586e+01    1.825607e+01
  3.111712e+01    1.749844e+01
  3.113839e+01    1.735682e+01
  3.115965e+01    1.720609e+01
  3.118091e+01    1.691489e+01
  3.120217e+01    1.734275e+01
  3.122343e+01    1.730312e+01
  3.124470e+01    1.709940e+01
  3.126596e+01    1.651985e+01
  3.128722e+01    1.528156e+01
  3.130848e+01    1.417932e+01
  3.132974e+01    1.303397e+01
  3.135101e+01    1.074753e+01
  3.137227e+01    9.965793e+00
  3.139353e+01    8.641945e+00
  3.141479e+01    6.868308e+00
  3.143606e+01    4.189939e+00
  3.145732e+01    1.584127e+00
  3.147858e+01    1.516697e+00
  3.149984e+01    7.277521e-01
  3.152110e+01    8.697749e-01
  3.154237e+01    3.098284e-01
